254 253 0 11 0 199 199 237 1 10 254 200 254 137 0 2  255 5 0 15 0 202 199 238 1 12 254 201 254 133 0 2  255 12 0 16 0 196 199 239 1 14 254 203 254 129 0 2  255 14 0 18 0 192 199 240 1 19 254 203 254 124 0 2  255 13 0 18 0 195 199 241 1 23 254 202 254 120 0 2  255 15 0 16 0 200 199 242 1 26 254 201 254 118 0 2  255 21 0 18 0 196 199 243 1 29 254 201 254 115 0 2  255 23 0 15 0 199 199 244 1 33 254 201 254 113 0 2  255 26 0 11 0 210 199 245 1 37 254 202 254 114 0 2  255 30 0 5 0 207 199 246 1 41 254 202 254 114 0 2  255 28 0 0 0 200 199 247 1 45 254 201 254 114 0 2  255 34 255 255 0 201 199 248 1 50 254 201 254 113 0 2  255 36 0 2 0 202 199 249 1 55 254 201 254 113 0 2  255 33 0 8 0 206 199 250 1 61 254 199 254 115 0 2  255 32 0 8 0 212 199 251 1 64 254 197 254 117 0 2  255 31 0 9 0 218 199 252 1 68 254 196 254 119 0 2  255 30 0 16 0 225 199 253 1 74 254 197 254 122 0 2  255 30 0 26 0 223 199 254 1 79 254 197 254 124 0 2  255 25 0 29 0 223 199 255 1 85 254 196 254 128 0 2  255 15 0 36 0 233 200 0 1 91 254 195 254 132 0 2  255 9 0 48 0 242 200 1 1 98 254 193 254 135 0 2  255 7 0 57 0 239 200 2 1 103 254 192 254 140 0 2  255 2 0 65 0 248 200 3 1 110 254 191 254 145 0 2  254 248 0 76 1 3 200 4 1 117 254 190 254 149 0 2  254 238 0 87 1 4 200 5 1 124 254 189 254 154 0 2  254 227 0 96 1 11 200 6 1 131 254 188 254 158 0 2  254 217 0 104 1 20 200 7 1 138 254 187 254 163 0 2  254 210 0 116 1 24 200 8 1 145 254 187 254 168 0 2  254 201 0 128 1 27 200 9 1 153 254 187 254 173 0 2  254 192 0 139 1 33 200 10 1 161 254 185 254 180 0 2  254 187 0 150 1 41 200 11 1 168 254 184 254 185 0 2  254 185 0 162 1 50 200 12 1 175 254 184 254 189 0 2  254 179 0 167 1 53 200 13 1 184 254 183 254 195 0 2  254 169 0 173 1 61 200 14 1 192 254 182 254 201 0 2  254 163 0 182 1 74 200 15 1 200 254 181 254 207 0 2  254 153 0 190 1 81 200 16 1 208 254 182 254 214 0 2  254 136 0 199 1 92 200 17 1 217 254 182 254 220 0 2  254 121 0 204 1 99 200 18 1 225 254 181 254 228 0 2  254 108 0 207 1 104 200 19 1 234 254 181 254 234 0 2  254 92 0 213 1 111 200 20 1 243 254 180 254 240 0 2  254 76 0 220 1 118 200 21 1 251 254 181 254 246 0 2  254 65 0 227 1 128 200 22 2 4 254 181 254 252 0 2  254 51 0 236 1 139 200 23 2 14 254 180 255 3 0 2  254 36 0 243 1 147 200 24 2 23 254 179 255 11 0 2  254 24 0 252 1 154 200 25 2 31 254 180 255 18 0 2  254 12 1 8 1 161 200 26 2 40 254 182 255 24 0 2  253 251 1 19 1 172 200 27 2 49 254 184 255 30 0 2  253 240 1 32 1 183 200 28 2 60 254 186 255 36 0 2  253 228 1 54 1 190 200 29 2 70 254 187 255 42 0 2  253 210 1 78 1 200 200 30 2 79 254 187 255 48 0 2  253 196 1 94 1 210 200 31 2 88 254 189 255 54 0 2  253 181 1 112 1 218 200 32 2 98 254 190 255 60 0 2  253 160 1 127 1 222 200 33 2 109 254 192 255 66 0 2  253 140 1 138 1 229 200 34 2 119 254 194 255 70 0 2  253 120 1 154 1 248 200 35 2 129 254 196 255 74 0 2  253 102 1 175 2 3 200 36 2 139 254 198 255 78 0 2  253 81 1 195 2 15 200 37 2 150 254 200 255 82 0 2  253 55 1 212 2 29 200 38 2 161 254 203 255 86 0 2  253 32 1 233 2 40 200 39 2 171 254 205 255 91 0 2  253 9 1 252 2 56 200 40 2 181 254 207 255 95 0 2  252 243 2 15 2 69 200 41 2 192 254 210 255 97 0 2  252 220 2 35 2 79 200 42 2 202 254 212 255 99 0 2  252 197 2 56 2 89 200 43 2 213 254 216 255 102 0 2  252 180 2 77 2 103 200 44 2 225 254 220 255 103 0 2  252 161 2 95 2 118 200 45 2 236 254 223 255 105 0 2  252 134 2 115 2 129 200 46 2 248 254 225 255 107 0 2  252 112 2 136 2 134 200 47 3 3 254 229 255 109 0 2  252 95 2 154 2 148 200 48 3 14 254 232 255 110 0 2  252 76 2 170 2 168 200 49 3 24 254 237 255 109 0 2  252 53 2 186 2 180 200 50 3 35 254 242 255 108 0 2  252 32 2 205 2 192 200 51 3 48 254 246 255 108 0 2  252 11 2 221 2 205 200 52 3 60 254 250 255 108 0 2  251 245 2 236 2 218 200 53 3 70 254 254 255 108 0 2  251 223 2 254 2 230 200 54 3 82 255 2 255 106 0 2  251 202 3 17 2 240 200 55 3 94 255 7 255 104 0 2  251 177 3 39 2 252 200 56 3 106 255 12 255 103 0 2  251 151 3 57 3 12 200 57 3 117 255 16 255 103 0 2  251 128 3 71 3 20 200 58 3 129 255 20 255 101 0 2  251 102 3 88 3 24 200 59 3 141 255 25 255 99 0 2  251 79 3 119 3 42 200 60 3 153 255 30 255 97 0 2  251 52 3 98 3 61 200 61 3 167 255 36 255 95 0 2  251 30 3 74 3 63 200 62 3 179 255 43 255 93 0 2  251 11 3 102 3 64 200 63 3 190 255 49 255 91 0 2  250 237 3 162 3 70 200 64 3 200 255 53 255 88 0 2  250 209 3 232 3 75 200 65 3 210 255 58 255 85 0 2  250 171 3 223 3 80 200 66 3 223 255 64 255 82 0 2  250 134 3 186 3 87 200 67 3 237 255 71 255 79 0 2  250 113 3 167 3 90 200 68 3 250 255 79 255 76 0 2  250 101 3 160 3 93 200 69 4 5 255 86 255 73 0 2  250 103 3 179 3 96 200 70 4 16 255 93 255 70 0 2  250 100 3 188 3 101 200 71 4 26 255 101 255 66 0 2  250 83 3 184 3 110 200 72 4 37 255 107 255 63 0 2  250 64 3 178 3 119 200 73 4 48 255 112 255 60 0 2  250 39 3 158 3 125 200 74 4 59 255 118 255 57 0 2  250 23 3 150 3 124 200 75 4 69 255 126 255 55 0 2  250 12 3 147 3 122 200 76 4 80 255 134 255 52 0 2  249 253 3 137 3 123 200 77 4 89 255 142 255 50 0 2  249 240 3 132 3 123 200 78 4 98 255 149 255 47 0 2  249 226 3 119 3 123 200 79 4 106 255 157 255 45 0 2  249 213 3 111 3 120 200 80 4 116 255 165 255 43 0 2  249 203 3 104 3 119 200 81 4 127 255 173 255 43 0 2  249 191 3 89 3 115 200 82 4 137 255 179 255 41 0 2  249 187 3 73 3 111 200 83 4 144 255 187 255 40 0 2  249 190 3 55 3 113 200 84 4 152 255 196 255 37 0 2  249 184 3 36 3 110 200 85 4 160 255 205 255 35 0 2  249 179 3 22 3 132 200 86 4 169 255 212 255 35 0 2  249 197 3 25 3 217 200 87 4 176 255 219 255 34 0 2  249 215 3 16 3 233 200 88 4 183 255 226 255 33 0 2  249 191 2 227 3 155 200 89 4 191 255 233 255 32 0 2  249 180 2 185 3 102 200 90 4 201 255 241 255 31 0 2  249 161 2 164 3 58 200 91 4 209 255 249 255 28 0 2  249 135 2 136 3 21 200 92 4 216 0 0 255 25 0 2  249 158 2 127 2 254 200 93 4 222 0 8 255 24 0 2  249 195 2 142 2 248 200 94 4 226 0 17 255 22 0 2  249 243 2 148 2 255 200 95 4 230 0 25 255 21 0 2  250 13 2 144 3 8 200 96 4 235 0 30 255 20 0 2  250 21 2 133 3 16 200 97 4 241 0 35 255 18 0 2  250 26 2 122 3 20 200 98 4 248 0 40 255 15 0 2  250 37 2 118 3 23 200 99 4 254 0 46 255 13 0 2  250 62 2 113 3 23 200 100 5 3 0 53 255 11 0 2  250 75 2 111 3 12 200 101 5 8 0 60 255 9 0 2  250 79 2 107 3 1 200 102 5 13 0 63 255 6 0 2  250 76 2 104 2 248 200 103 5 17 0 67 255 4 0 2  250 70 2 106 2 241 200 104 5 21 0 71 255 1 0 2  250 70 2 107 2 240 200 105 5 24 0 76 254 253 0 2  250 75 2 119 2 234 200 106 5 27 0 80 254 250 0 2  250 85 2 131 2 221 200 107 5 31 0 85 254 247 0 2  250 92 2 140 2 215 200 108 5 35 0 91 254 244 0 2  250 91 2 152 2 217 200 109 5 39 0 94 254 240 0 2  250 87 2 170 2 222 200 110 5 44 0 97 254 235 0 2  250 86 2 186 2 226 200 111 5 47 0 101 254 231 0 2  250 87 2 205 2 229 200 112 5 51 0 105 254 228 0 2  250 82 2 228 2 236 200 113 5 54 0 108 254 224 0 2  250 73 2 249 2 240 200 114 5 58 0 111 254 221 0 2  250 65 3 18 2 244 200 115 5 62 0 113 254 218 0 2  250 51 3 46 2 251 200 116 5 66 0 117 254 213 0 2  250 31 3 76 3 5 200 117 5 70 0 119 254 209 0 2  250 14 3 110 3 19 200 118 5 75 0 122 254 204 0 2  249 253 3 148 3 23 200 119 5 80 0 124 254 199 0 2  249 231 3 187 3 28 200 120 5 84 0 127 254 196 0 2  249 214 3 224 3 36 200 121 5 88 0 131 254 192 0 2  249 196 4 4 3 43 200 122 5 93 0 135 254 187 0 2  249 176 4 39 3 54 200 123 5 98 0 138 254 181 0 2  249 154 4 91 3 69 200 124 5 103 0 142 254 176 0 2  249 134 4 98 3 94 200 125 5 109 0 147 254 170 0 2  249 113 4 95 3 101 200 126 5 115 0 150 254 165 0 2  249 85 4 147 3 95 200 127 5 119 0 153 254 161 0 2  249 50 4 246 3 111 200 128 5 122 0 157 254 155 0 2  249 7 5 124 3 145 200 129 5 126 0 160 254 148 0 2  248 222 5 143 3 161 200 130 5 134 0 164 254 140 0 2  248 182 5 83 3 157 200 131 5 144 0 169 254 133 0 2  248 141 5 71 3 160 200 132 5 152 0 175 254 127 0 2  248 122 5 121 3 166 200 133 5 157 0 181 254 121 0 2  248 102 6 4 3 174 200 134 5 162 0 186 254 115 0 2  248 60 6 110 3 198 200 135 5 166 0 192 254 108 0 2  248 4 6 129 3 225 200 136 5 173 0 197 254 100 0 2  247 208 6 138 3 248 200 137 5 182 0 202 254 94 0 2  247 177 6 144 4 20 200 138 5 192 0 209 254 89 0 2  247 168 6 192 4 57 200 139 5 201 0 216 254 83 0 2  247 154 7 12 4 70 200 140 5 209 0 223 254 77 0 2  247 134 7 37 4 61 200 141 5 216 0 230 254 72 0 2  247 104 7 55 4 61 200 142 5 225 0 235 254 68 0 2  247 45 7 47 4 80 200 143 5 235 0 241 254 63 0 2  247 22 7 50 4 100 200 144 5 244 0 248 254 59 0 2  247 28 7 115 4 104 200 145 5 251 1 0 254 58 0 2  247 34 7 147 4 116 200 146 6 3 1 9 254 57 0 2  247 33 7 173 4 136 200 147 6 12 1 18 254 56 0 2  247 10 7 179 4 153 200 148 6 22 1 25 254 56 0 2  246 239 7 163 4 163 200 149 6 32 1 32 254 56 0 2  246 221 7 179 4 172 200 150 6 41 1 39 254 58 0 2  246 210 7 182 4 175 200 151 6 50 1 47 254 61 0 2  246 201 7 182 4 173 200 152 6 60 1 55 254 65 0 2  246 199 7 179 4 172 200 153 6 69 1 62 254 69 0 2  246 199 7 164 4 169 200 154 6 78 1 69 254 75 0 2  246 203 7 158 4 164 200 155 6 87 1 76 254 82 0 2  246 211 7 153 4 161 200 156 6 96 1 83 254 91 0 2  246 221 7 157 4 166 200 157 6 103 1 91 254 102 0 2  246 233 7 154 4 164 200 158 6 110 1 98 254 112 0 2  246 251 7 132 4 159 200 159 6 119 1 104 254 123 0 2  247 14 7 116 4 155 200 160 6 128 1 110 254 134 0 2  247 32 7 106 4 146 200 161 6 137 1 116 254 146 0 2  247 50 7 91 4 136 200 162 6 145 1 122 254 161 0 2  247 67 7 76 4 127 200 163 6 150 1 128 254 177 0 2  247 90 7 64 4 121 200 164 6 157 1 133 254 194 0 2  247 115 7 48 4 111 200 165 6 164 1 137 254 211 0 2  247 137 7 25 4 102 200 166 6 172 1 143 254 228 0 2  247 164 7 4 4 99 200 167 6 179 1 147 254 245 0 2  247 196 6 242 4 99 200 168 6 186 1 151 255 9 0 2  247 226 6 224 4 90 200 169 6 192 1 154 255 29 0 2  247 252 6 204 4 75 200 170 6 197 1 157 255 50 0 2  248 21 6 179 4 65 200 171 6 202 1 159 255 70 0 2  248 52 6 151 4 60 200 172 6 207 1 160 255 91 0 2  248 85 6 129 4 53 200 173 6 212 1 162 255 112 0 2  248 120 6 107 4 46 200 174 6 217 1 164 255 135 0 2  248 146 6 87 4 44 200 175 6 222 1 165 255 156 0 2  248 174 6 69 4 38 200 176 6 226 1 165 255 179 0 2  248 216 6 54 4 33 200 177 6 230 1 164 255 202 0 2  248 247 6 36 4 29 200 178 6 234 1 164 255 225 0 2  249 23 6 11 4 22 200 179 6 236 1 164 255 248 0 2  249 57 5 246 4 12 200 180 6 239 1 163 0 16 0 2  249 86 5 228 4 8 200 181 6 242 1 161 0 39 0 2  249 117 5 209 4 9 200 182 6 245 1 157 0 62 0 2  249 152 5 189 4 7 200 183 6 247 1 154 0 87 0 2  249 184 5 169 4 2 200 184 6 250 1 151 0 111 0 2  249 210 5 153 4 0 200 185 6 253 1 149 0 132 0 2  249 241 5 132 4 0 200 186 6 254 1 144 0 154 0 2  250 16 5 109 3 248 200 187 6 254 1 138 0 177 0 2  250 44 5 86 3 243 200 188 6 255 1 133 0 200 0 2  250 70 5 66 3 245 200 189 7 1 1 127 0 223 0 2  250 96 5 46 3 245 200 190 7 1 1 121 0 244 0 2  250 128 5 22 3 241 200 191 7 1 1 114 1 8 0 2  250 158 5 2 3 238 200 192 7 0 1 107 1 28 0 2  250 185 4 236 3 235 200 193 7 0 1 99 1 48 0 2  250 207 4 211 3 236 200 194 7 0 1 92 1 67 0 2  250 232 4 190 3 235 200 195 7 0 1 84 1 86 0 2  251 0 4 164 3 230 200 196 7 0 1 77 1 104 0 2  251 19 4 139 3 229 200 197 6 254 1 68 1 120 0 2  251 39 4 118 3 234 200 198 6 252 1 58 1 135 0 2  251 62 4 95 3 236 200 199 6 249 1 49 1 149 0 2  251 77 4 67 3 231 200 200 6 247 1 39 1 162 0 2  251 86 4 38 3 229 200 201 6 245 1 29 1 175 0 2  251 100 4 16 3 235 200 202 6 243 1 20 1 189 0 2  251 114 3 252 3 238 200 203 6 240 1 10 1 200 0 2  251 127 3 230 3 235 200 204 6 236 1 0 1 208 0 2  251 138 3 205 3 233 200 205 6 232 0 247 1 216 0 2  251 149 3 181 3 233 200 206 6 228 0 237 1 222 0 2  251 162 3 160 3 240 200 207 6 223 0 226 1 228 0 2  251 177 3 138 3 242 200 208 6 219 0 215 1 232 0 2  251 186 3 117 3 239 200 209 6 216 0 206 1 236 0 2  251 197 3 95 3 246 200 210 6 212 0 195 1 239 0 2  251 209 3 77 3 254 200 211 6 206 0 185 1 240 0 2  251 217 3 59 4 5 200 212 6 200 0 176 1 240 0 2  251 222 3 42 4 11 200 213 6 195 0 165 1 239 0 2  251 226 3 20 4 22 200 214 6 189 0 155 1 237 0 2  251 239 2 249 4 34 200 215 6 184 0 144 1 234 0 2  251 244 2 227 4 42 200 216 6 179 0 134 1 231 0 2  251 238 2 211 4 64 200 217 6 173 0 124 1 226 0 2  251 239 2 192 4 70 200 218 6 166 0 114 1 220 0 2  251 238 2 176 4 56 200 219 6 158 0 105 1 213 0 2  251 235 2 162 4 51 200 220 6 151 0 96 1 205 0 2  251 235 2 159 4 42 200 221 6 144 0 88 1 198 0 2  251 235 2 157 4 32 200 222 6 138 0 79 1 189 0 2  251 241 2 140 4 28 200 223 6 131 0 70 1 180 0 2  251 251 2 127 4 27 200 224 6 123 0 62 1 169 0 2  252 1 2 109 4 27 200 225 6 115 0 54 1 158 0 2  252 7 2 96 4 18 200 226 6 107 0 46 1 147 0 2  252 10 2 86 4 15 200 227 6 99 0 38 1 136 0 2  252 15 2 68 4 8 200 228 6 90 0 30 1 126 0 2  252 24 2 57 3 249 200 229 6 81 0 23 1 115 0 2  252 35 2 46 3 245 200 230 6 73 0 15 1 103 0 2  252 47 2 30 3 239 200 231 6 65 0 8 1 92 0 2  252 54 2 17 3 229 200 232 6 56 0 1 1 80 0 2  252 68 2 1 3 222 200 233 6 47 255 250 1 68 0 2  252 79 1 245 3 210 200 234 6 38 255 242 1 57 0 2  252 88 1 236 3 202 200 235 6 28 255 236 1 44 0 2  252 101 1 218 3 199 200 236 6 19 255 230 1 32 0 2  252 112 1 199 3 186 200 237 6 10 255 223 1 23 0 2  252 129 1 180 3 175 200 238 6 1 255 218 1 15 0 2  252 140 1 162 3 169 200 239 5 248 255 213 1 5 0 2  252 150 1 146 3 158 200 240 5 238 255 207 0 250 0 2  252 161 1 131 3 143 200 241 5 228 255 200 0 241 0 2  252 173 1 114 3 128 200 242 5 218 255 193 0 232 0 2  252 189 1 95 3 116 200 243 5 209 255 187 0 225 0 2  252 200 1 82 3 103 200 244 5 200 255 183 0 219 0 2  252 207 1 71 3 93 200 245 5 189 255 179 0 213 0 2  252 220 1 60 3 84 200 246 5 177 255 174 0 207 0 2  252 235 1 52 3 72 200 247 5 165 255 167 0 202 0 2  252 242 1 45 3 69 200 248 5 155 255 161 0 197 0 2  252 255 1 39 3 65 200 249 5 144 255 157 0 194 0 2  253 11 1 29 3 54 200 250 5 133 255 152 0 190 0 2  253 25 1 20 3 51 200 251 5 123 255 147 0 186 0 2  253 43 1 14 3 47 200 252 5 113 255 142 0 182 0 2  253 49 1 13 3 45 200 253 5 101 255 138 0 179 0 2  253 57 1 3 3 40 200 254 5 89 255 135 0 177 0 2  253 67 0 243 3 29 200 255 5 78 255 130 0 176 0 2  253 74 0 239 3 18 201 0 5 68 255 125 0 174 0 2  253 82 0 234 3 0 201 1 5 57 255 120 0 172 0 2  253 88 0 224 2 243 201 2 5 46 255 116 0 170 0 2  253 94 0 212 2 237 201 3 5 35 255 113 0 169 0 2  253 108 0 195 2 233 201 4 5 23 255 109 0 167 0 2  253 122 0 188 2 231 201 5 5 10 255 106 0 165 0 2  253 137 0 184 2 230 201 6 4 255 255 103 0 164 0 2  253 154 0 176 2 225 201 7 4 244 255 99 0 164 0 2  253 162 0 171 2 225 201 8 4 232 255 95 0 164 0 2  253 176 0 159 2 226 201 9 4 220 255 91 0 163 0 2  253 188 0 145 2 222 201 10 4 208 255 87 0 161 0 2  253 197 0 140 2 220 201 11 4 197 255 84 0 160 0 2  253 205 0 128 2 216 201 12 4 185 255 81 0 158 0 2  253 212 0 113 2 211 201 13 4 175 255 78 0 156 0 2  253 224 0 105 2 208 201 14 4 164 255 75 0 155 0 2  253 234 0 96 2 203 201 15 4 151 255 71 0 153 0 2  253 243 0 87 2 205 201 16 4 140 255 68 0 151 0 2  253 249 0 72 2 206 201 17 4 129 255 64 0 149 0 2  254 6 0 55 2 203 201 18 4 118 255 62 0 146 0 2  254 20 0 42 2 211 201 19 4 106 255 59 0 142 0 2  254 26 0 32 2 221 201 20 4 93 255 55 0 139 0 2  254 35 0 19 2 224 201 21 4 80 255 52 0 137 0 2  254 47 0 3 2 222 201 22 4 68 255 49 0 134 0 2  254 53 255 243 2 227 201 23 4 58 255 45 0 132 0 2  254 56 255 226 2 233 201 24 4 49 255 42 0 129 0 2  254 64 255 209 2 228 201 25 4 38 255 39 0 125 0 2  254 76 255 196 2 226 201 26 4 26 255 36 0 121 0 2  254 79 255 182 2 227 201 27 4 13 255 33 0 119 0 2  254 81 255 168 2 230 201 28 4 2 255 29 0 117 0 2  254 87 255 160 2 238 201 29 3 248 255 25 0 115 0 2  254 98 255 152 2 241 201 30 3 237 255 22 0 113 0 2  254 105 255 135 2 235 201 31 3 226 255 19 0 109 0 2  254 105 255 124 2 236 201 32 3 215 255 16 0 105 0 2  254 112 255 120 2 236 201 33 3 203 255 12 0 103 0 2  254 128 255 107 2 235 201 34 3 191 255 8 0 102 0 2  254 139 255 91 2 240 201 35 3 180 255 4 0 101 0 2  254 148 255 79 2 236 201 36 3 169 254 255 0 101 0 2  254 163 255 64 2 232 201 37 3 158 254 251 0 99 0 2  254 173 255 45 2 233 201 38 3 148 254 247 0 98 0 2  254 179 255 30 2 224 201 39 3 137 254 243 0 96 0 2  254 188 255 14 2 220 201 40 3 125 254 239 0 95 0 2  254 200 254 255 2 223 201 41 3 113 254 236 0 96 0 2  254 208 254 242 2 219 201 42 3 102 254 232 0 96 0 2  254 217 254 230 2 216 201 43 3 90 254 227 0 95 0 2  254 227 254 222 2 213 201 44 3 78 254 224 0 94 0 2  254 237 254 217 2 208 201 45 3 66 254 221 0 94 0 2  254 249 254 211 2 205 201 46 3 54 254 216 0 94 0 2  255 3 254 205 2 198 201 47 3 44 254 211 0 95 0 2  255 11 254 197 2 188 201 48 3 33 254 205 0 95 0 2  255 18 254 185 2 181 201 49 3 20 254 201 0 94 0 2  255 29 254 181 2 177 201 50 3 7 254 196 0 92 0 2  255 42 254 181 2 172 201 51 2 251 254 193 0 92 0 2  255 55 254 175 2 157 201 52 2 239 254 189 0 92 0 2  255 70 254 167 2 151 201 53 2 227 254 184 0 92 0 2  255 84 254 159 2 146 201 54 2 216 254 180 0 91 0 2  255 96 254 150 2 133 201 55 2 203 254 175 0 90 0 2  255 110 254 142 2 128 201 56 2 191 254 169 0 90 0 2  255 127 254 136 2 120 201 57 2 178 254 163 0 89 0 2  255 138 254 133 2 111 201 58 2 167 254 158 0 88 0 2  255 150 254 132 2 109 201 59 2 154 254 153 0 87 0 2  255 163 254 129 2 99 201 60 2 141 254 148 0 85 0 2  255 171 254 126 2 91 201 61 2 128 254 143 0 83 0 2  255 182 254 123 2 89 201 62 2 117 254 138 0 83 0 2  255 199 254 123 2 87 201 63 2 106 254 133 0 81 0 2  255 212 254 125 2 81 201 64 2 94 254 128 0 78 0 2  255 221 254 125 2 75 201 65 2 81 254 123 0 75 0 2  255 235 254 121 2 68 201 66 2 69 254 118 0 73 0 2  255 250 254 120 2 61 201 67 2 57 254 113 0 69 0 2  0 7 254 123 2 55 201 68 2 46 254 107 0 65 0 2  0 17 254 122 2 44 201 69 2 35 254 101 0 62 0 2  0 30 254 120 2 34 201 70 2 23 254 95 0 60 0 2  0 45 254 120 2 33 201 71 2 11 254 91 0 58 0 2  0 55 254 123 2 31 201 72 2 0 254 87 0 54 0 2  0 64 254 128 2 26 201 73 1 245 254 81 0 50 0 2  0 76 254 123 2 20 201 74 1 234 254 75 0 47 0 2  0 83 254 123 2 16 201 75 1 224 254 70 0 44 0 2  0 86 254 127 2 12 201 76 1 213 254 66 0 40 0 2  0 92 254 123 2 2 201 77 1 201 254 60 0 35 0 2  0 96 254 125 1 251 201 78 1 190 254 54 0 31 0 2  0 95 254 131 1 249 201 79 1 180 254 48 0 27 0 2  0 91 254 132 1 249 201 80 1 171 254 42 0 23 0 2  0 94 254 135 1 247 201 81 1 161 254 37 0 19 0 2  0 99 254 144 1 250 201 82 1 151 254 32 0 15 0 2  0 104 254 149 1 252 201 83 1 141 254 26 0 12 0 2  0 108 254 153 1 248 201 84 1 132 254 20 0 8 0 2  0 110 254 159 1 243 201 85 1 123 254 14 0 3 0 2  0 112 254 168 1 238 201 86 1 114 254 9 255 255 0 2  0 115 254 174 1 239 201 87 1 106 254 4 255 251 0 2  0 122 254 180 1 241 201 88 1 98 254 0 255 247 0 2  0 126 254 189 1 238 201 89 1 89 253 251 255 244 0 2  0 127 254 199 1 234 201 90 1 81 253 245 255 242 0 2  0 129 254 209 1 231 201 91 1 75 253 239 255 238 0 2  0 133 254 218 1 227 201 92 1 68 253 232 255 235 0 2  0 130 254 230 1 226 201 93 1 61 253 225 255 231 0 2  0 127 254 243 1 221 201 94 1 54 253 220 255 227 0 2  0 127 255 0 1 216 201 95 1 47 253 215 255 225 0 2  0 121 255 14 1 219 201 96 1 40 253 210 255 222 0 2  0 119 255 23 1 217 201 97 1 33 253 204 255 219 0 2  0 127 255 31 1 212 201 98 1 27 253 198 255 215 0 2  0 133 255 42 1 206 201 99 1 22 253 191 255 213 0 2  0 139 255 53 1 202 201 100 1 17 253 186 255 210 0 2  0 149 255 63 1 202 201 101 1 12 253 181 255 206 0 2  0 160 255 74 1 201 201 102 1 6 253 176 255 203 0 2  0 164 255 84 1 188 201 103 1 1 253 171 255 200 0 2  0 166 255 96 1 177 201 104 0 252 253 165 255 196 0 2  0 168 255 104 1 177 201 105 0 248 253 160 255 192 0 2  0 166 255 111 1 172 201 106 0 244 253 154 255 188 0 2  0 167 255 128 1 165 201 107 0 240 253 149 255 184 0 2  0 167 255 139 1 163 201 108 0 236 253 144 255 181 0 2  0 166 255 148 1 159 201 109 0 233 253 139 255 177 0 2  0 163 255 160 1 143 201 110 0 230 253 134 255 174 0 2  0 161 255 171 1 130 201 111 0 228 253 128 255 170 0 2  0 161 255 179 1 128 201 112 0 226 253 121 255 167 0 2  0 160 255 193 1 132 201 113 0 224 253 115 255 163 0 2  0 155 255 206 1 131 201 114 0 222 253 110 255 159 0 2  0 151 255 222 1 135 201 115 0 220 253 106 255 154 0 2  0 157 255 219 1 149 201 116 0 218 253 102 255 149 0 2  0 159 255 206 1 146 201 117 0 218 253 97 255 145 0 2  0 158 255 212 1 133 201 118 0 218 253 91 255 142 0 2  0 151 255 232 1 116 201 119 0 216 253 87 255 138 0 2  0 135 0 22 1 100 201 120 0 213 253 82 255 133 0 2  0 124 0 41 1 93 201 121 0 212 253 77 255 129 0 2  0 111 0 32 1 92 201 122 0 213 253 72 255 126 0 2  0 104 0 20 1 98 201 123 0 214 253 67 255 123 0 2  0 110 0 9 1 101 201 124 0 216 253 63 255 121 0 2  0 120 0 25 1 100 201 125 0 218 253 59 255 118 0 2  0 126 0 41 1 104 201 126 0 218 253 54 255 117 0 2  0 132 0 37 1 112 201 127 0 218 253 49 255 116 0 2  0 132 0 32 1 116 201 128 0 219 253 45 255 116 0 2  0 122 0 27 1 106 201 129 0 220 253 39 255 114 0 2  0 114 0 41 1 91 201 130 0 221 253 34 255 114 0 2  0 104 0 66 1 80 201 131 0 220 253 31 255 116 0 2  0 92 0 67 1 71 201 132 0 221 253 27 255 118 0 2  0 85 0 70 1 65 201 133 0 224 253 22 255 120 0 2  0 79 0 72 1 62 201 134 0 227 253 17 255 123 0 2  0 80 0 72 1 59 201 135 0 229 253 12 255 126 0 2  0 84 0 78 1 56 201 136 0 230 253 8 255 127 0 2  0 86 0 80 1 53 201 137 0 230 253 5 255 130 0 2  0 88 0 84 1 50 201 138 0 232 253 2 255 135 0 2  0 84 0 82 1 42 201 139 0 234 252 254 255 141 0 2  0 80 0 77 1 36 201 140 0 236 252 249 255 146 0 2  0 80 0 85 1 39 201 141 0 237 252 244 255 150 0 2  0 76 0 90 1 33 201 142 0 239 252 241 255 155 0 2  0 70 0 94 1 21 201 143 0 242 252 238 255 161 0 2  0 66 0 101 1 12 201 144 0 245 252 234 255 167 0 2  0 63 0 103 1 4 201 145 0 246 252 230 255 173 0 2  0 58 0 107 1 3 201 146 0 247 252 226 255 179 0 2  0 49 0 115 1 0 201 147 0 248 252 223 255 184 0 2  0 43 0 123 0 251 201 148 0 250 252 220 255 192 0 2  0 43 0 125 0 243 201 149 0 252 252 217 255 199 0 2  0 47 0 128 0 229 201 150 0 253 252 213 255 206 0 2  0 51 0 131 0 224 201 151 0 255 252 210 255 212 0 2  0 52 0 133 0 220 201 152 1 1 252 206 255 218 0 2  0 49 0 137 0 211 201 153 1 3 252 202 255 224 0 2  0 50 0 143 0 206 201 154 1 5 252 200 255 230 0 2  0 57 0 142 0 201 201 155 1 7 252 197 255 235 0 2  0 57 0 136 0 201 201 156 1 9 252 193 255 240 0 2  0 53 0 137 0 198 201 157 1 10 252 189 255 246 0 2  0 53 0 136 0 186 201 158 1 11 252 186 255 253 0 2  0 55 0 131 0 172 201 159 1 12 252 184 0 3 0 2  0 56 0 134 0 166 201 160 1 14 252 182 0 10 0 2  0 55 0 134 0 165 201 161 1 15 252 180 0 15 0 2  0 52 0 127 0 158 201 162 1 17 252 176 0 20 0 2  0 50 0 125 0 154 201 163 1 19 252 172 0 23 0 2  0 45 0 125 0 152 201 164 1 20 252 168 0 28 0 2  0 42 0 120 0 151 201 165 1 22 252 166 0 33 0 2  0 41 0 117 0 144 201 166 1 22 252 163 0 39 0 2  0 41 0 112 0 139 201 167 1 23 252 160 0 43 0 2  0 42 0 107 0 135 201 168 1 25 252 158 0 47 0 2  0 43 0 102 0 131 201 169 1 25 252 155 0 51 0 2  0 43 0 97 0 136 201 170 1 26 252 151 0 55 0 2  0 36 0 93 0 135 201 171 1 27 252 148 0 59 0 2  0 32 0 86 0 123 201 172 1 27 252 145 0 64 0 2  0 32 0 79 0 114 201 173 1 28 252 141 0 68 0 2  0 32 0 72 0 110 201 174 1 30 252 137 0 71 0 2  0 28 0 63 0 106 201 175 1 31 252 134 0 73 0 2  0 17 0 57 0 104 201 176 1 31 252 132 0 76 0 2  0 10 0 51 0 105 201 177 1 31 252 130 0 79 0 2  0 13 0 40 0 102 201 178 1 31 252 127 0 82 0 2  0 14 0 32 0 89 201 179 1 32 252 124 0 86 0 2  0 15 0 23 0 86 201 180 1 31 252 121 0 89 0 2  0 12 0 18 0 89 201 181 1 32 252 118 0 91 0 2  255 254 0 15 0 88 201 182 1 33 252 114 0 93 0 2  255 248 0 7 0 80 201 183 1 33 252 111 0 96 0 2  255 246 0 3 0 70 201 184 1 32 252 108 0 98 0 2  255 236 255 254 0 67 201 185 1 32 252 104 0 101 0 2  255 227 255 250 0 68 201 186 1 33 252 101 0 103 0 2  255 216 255 247 0 70 201 187 1 35 252 99 0 104 0 2  255 205 255 244 0 65 201 188 1 35 252 96 0 104 0 2  255 201 255 239 0 51 201 189 1 34 252 93 0 105 0 2  255 190 255 237 0 37 201 190 1 34 252 90 0 106 0 2  255 179 255 236 0 31 201 191 1 34 252 87 0 108 0 2  255 177 255 236 0 28 201 192 1 35 252 84 0 109 0 2  255 171 255 237 0 24 201 193 1 34 252 80 0 108 0 2  255 161 255 234 0 24 201 194 1 34 252 76 0 107 0 2  255 152 255 230 0 21 201 195 1 35 252 74 0 107 0 2  255 141 255 226 0 14 201 196 1 36 252 71 0 106 0 2  255 131 255 222 0 4 201 197 1 37 252 68 0 106 0 2  255 122 255 221 0 0 201 198 1 38 252 66 0 105 0 2  255 107 255 219 0 1 201 199 1 38 252 64 0 104 0 2  255 88 255 214 255 252 201 200 1 37 252 61 0 102 0 2  255 71 255 213 255 244 201 201 1 37 252 58 0 102 0 2  255 55 255 214 255 232 201 202 1 38 252 56 0 101 0 2  255 36 255 206 255 223 201 203 1 40 252 53 0 99 0 2  255 13 255 201 255 220 201 204 1 40 252 50 0 98 0 2  254 250 255 203 255 219 201 205 1 41 252 48 0 97 0 2  254 234 255 198 255 221 201 206 1 42 252 46 0 95 0 2  254 215 255 192 255 217 201 207 1 43 252 43 0 92 0 2  254 197 255 191 255 208 201 208 1 44 252 41 0 91 0 2  254 181 255 185 255 206 201 209 1 45 252 39 0 89 0 2  254 154 255 179 255 205 201 210 1 46 252 38 0 86 0 2  254 129 255 167 255 200 201 211 1 46 252 37 0 84 0 2  254 106 255 154 255 195 201 212 1 48 252 36 0 81 0 2  254 80 255 147 255 188 201 213 1 50 252 34 0 80 0 2  254 58 255 142 255 179 201 214 1 52 252 33 0 79 0 2  254 35 255 137 255 172 201 215 1 53 252 33 0 76 0 2  254 11 255 132 255 167 201 216 1 54 252 33 0 72 0 2  253 244 255 130 255 164 201 217 1 56 252 31 0 68 0 2  253 224 255 130 255 156 201 218 1 57 252 31 0 65 0 2  253 202 255 129 255 154 201 219 1 58 252 31 0 63 0 2  253 183 255 128 255 153 201 220 1 61 252 30 0 60 0 2  253 162 255 127 255 141 201 221 1 63 252 28 0 58 0 2  253 137 255 128 255 136 201 222 1 64 252 28 0 55 0 2  253 116 255 125 255 133 201 223 1 65 252 28 0 49 0 2  253 99 255 119 255 127 201 224 1 66 252 28 0 44 0 2  253 78 255 112 255 122 201 225 1 68 252 27 0 39 0 2  253 55 255 105 255 111 201 226 1 71 252 27 0 36 0 2  253 35 255 94 255 103 201 227 1 72 252 26 0 32 0 2  253 10 255 80 255 100 201 228 1 73 252 27 0 27 0 2  252 248 255 71 255 97 201 229 1 75 252 27 0 22 0 2  252 228 255 60 255 92 201 230 1 77 252 26 0 17 0 2  252 203 255 49 255 84 201 231 1 79 252 25 0 12 0 2  252 182 255 38 255 81 201 232 1 82 252 26 0 6 0 2  252 160 255 25 255 74 201 233 1 85 252 27 0 1 0 2  252 134 255 12 255 65 201 234 1 87 252 26 255 253 0 2  252 114 255 4 255 58 201 235 1 88 252 26 255 249 0 2  252 95 255 2 255 52 201 236 1 89 252 26 255 244 0 2  252 76 255 1 255 46 201 237 1 90 252 26 255 239 0 2  252 53 254 254 255 39 201 238 1 92 252 26 255 234 0 2  252 20 254 249 255 33 201 239 1 95 252 25 255 229 0 2  251 245 254 250 255 27 201 240 1 96 252 25 255 225 0 2  251 220 255 0 255 19 201 241 1 98 252 24 255 221 0 2  251 194 255 7 255 7 201 242 1 101 252 24 255 215 0 2  251 165 255 10 254 251 201 243 1 103 252 24 255 209 0 2  251 139 255 12 254 241 201 244 1 105 252 23 255 203 0 2  251 108 255 24 254 232 201 245 1 108 252 22 255 199 0 2  251 75 255 36 254 227 201 246 1 112 252 22 255 194 0 2  251 50 255 41 254 223 201 247 1 116 252 22 255 186 0 2  251 24 255 51 254 215 201 248 1 117 252 22 255 177 0 2  250 252 255 62 254 203 201 249 1 120 252 21 255 170 0 2  250 230 255 71 254 192 201 250 1 124 252 21 255 164 0 2  250 207 255 86 254 183 201 251 1 128 252 21 255 158 0 2  250 183 255 105 254 172 201 252 1 133 252 21 255 151 0 2  250 154 255 123 254 157 201 253 1 138 252 20 255 144 0 2  250 124 255 141 254 143 201 254 1 142 252 18 255 136 0 2  250 102 255 165 254 129 201 255 1 146 252 18 255 126 0 2  250 77 255 191 254 114 202 0 1 153 252 18 255 117 0 2  250 49 255 219 254 103 202 1 1 159 252 17 255 109 0 2  250 18 255 245 254 90 202 2 1 165 252 16 255 100 0 2  249 242 0 16 254 81 202 3 1 171 252 15 255 89 0 2  249 213 0 45 254 82 202 4 1 178 252 15 255 79 0 2  249 185 0 76 254 69 202 5 1 184 252 14 255 69 0 2  249 156 0 112 254 46 202 6 1 191 252 14 255 59 0 2  249 130 0 147 254 31 202 7 1 199 252 13 255 47 0 2  249 107 0 181 254 17 202 8 1 208 252 13 255 35 0 2  249 78 0 221 254 1 202 9 1 215 252 12 255 23 0 2  249 55 1 6 253 246 202 10 1 224 252 11 255 11 0 2  249 37 1 47 253 231 202 11 1 233 252 10 254 254 0 2  249 13 1 92 253 217 202 12 1 243 252 9 254 241 0 2  248 248 1 138 253 194 202 13 1 254 252 8 254 229 0 2  248 222 1 183 253 168 202 14 2 10 252 9 254 214 0 2  248 190 1 227 253 156 202 15 2 22 252 7 254 199 0 2  248 161 2 18 253 143 202 16 2 33 252 7 254 186 0 2  248 135 2 64 253 122 202 17 2 46 252 6 254 174 0 2  248 111 2 107 253 100 202 18 2 58 252 4 254 161 0 2  248 88 2 151 253 84 202 19 2 70 252 4 254 148 0 2  248 67 2 195 253 65 202 20 2 84 252 4 254 135 0 2  248 49 2 237 253 52 202 21 2 98 252 4 254 122 0 2  248 27 3 25 253 39 202 22 2 113 252 4 254 109 0 2  248 6 3 65 253 24 202 23 2 128 252 3 254 98 0 2  247 242 3 101 253 12 202 24 2 143 252 2 254 89 0 2  247 221 3 137 252 254 202 25 2 158 252 2 254 80 0 2  247 198 3 170 252 238 202 26 2 172 252 2 254 72 0 2  247 174 3 204 252 224 202 27 2 187 252 2 254 65 0 2  247 154 3 239 252 214 202 28 2 203 252 2 254 58 0 2  247 137 4 15 252 205 202 29 2 220 252 3 254 53 0 2  247 117 4 44 252 194 202 30 2 237 252 3 254 50 0 2  247 96 4 73 252 187 202 31 2 253 252 3 254 49 0 2  247 79 4 96 252 188 202 32 3 13 252 1 254 47 0 2  247 59 4 115 252 188 202 33 3 28 252 2 254 46 0 2  247 38 4 131 252 181 202 34 3 44 252 3 254 47 0 2  247 21 4 147 252 179 202 35 3 61 252 3 254 49 0 2  247 4 4 171 252 187 202 36 3 77 252 3 254 53 0 2  246 235 4 192 252 191 202 37 3 93 252 4 254 59 0 2  246 205 4 204 252 193 202 38 3 110 252 4 254 64 0 2  246 179 4 221 252 197 202 39 3 127 252 5 254 71 0 2  246 155 4 239 252 200 202 40 3 142 252 6 254 81 0 2  246 126 4 255 252 202 202 41 3 157 252 7 254 90 0 2  246 98 5 19 252 211 202 42 3 174 252 9 254 101 0 2  246 66 5 35 252 222 202 43 3 191 252 11 254 112 0 2  246 33 5 49 252 227 202 44 3 206 252 13 254 123 0 2  246 3 5 63 252 237 202 45 3 221 252 15 254 134 0 2  245 225 5 78 252 254 202 46 3 236 252 17 254 145 0 2  245 194 5 91 253 8 202 47 3 251 252 19 254 158 0 2  245 166 5 97 253 16 202 48 4 9 252 22 254 171 0 2  245 137 5 103 253 30 202 49 4 24 252 25 254 186 0 2  245 107 5 106 253 44 202 50 4 39 252 29 254 199 0 2  245 76 5 109 253 59 202 51 4 52 252 33 254 212 0 2  245 44 5 115 253 76 202 52 4 65 252 37 254 224 0 2  245 18 5 116 253 89 202 53 4 77 252 42 254 237 0 2  244 246 5 115 253 102 202 54 4 90 252 47 254 251 0 2  244 218 5 114 253 111 202 55 4 102 252 52 255 8 0 2  244 198 5 117 253 130 202 56 4 114 252 58 255 20 0 2  244 175 5 122 253 151 202 57 4 126 252 63 255 32 0 2  244 147 5 124 253 162 202 58 4 139 252 69 255 44 0 2  244 118 5 127 253 178 202 59 4 150 252 75 255 55 0 2  244 101 5 127 253 192 202 60 4 161 252 82 255 63 0 2  244 89 5 126 253 205 202 61 4 170 252 89 255 72 0 2  244 65 5 128 253 221 202 62 4 181 252 95 255 81 0 2  244 46 5 126 253 228 202 63 4 190 252 103 255 89 0 2  244 35 5 120 253 238 202 64 4 199 252 111 255 97 0 2  244 26 5 109 253 255 202 65 4 207 252 118 255 103 0 2  244 19 5 97 254 11 202 66 4 214 252 125 255 109 0 2  244 13 5 91 254 13 202 67 4 222 252 134 255 115 0 2  244 10 5 80 254 16 202 68 4 228 252 144 255 119 0 2  244 8 5 70 254 27 202 69 4 233 252 151 255 123 0 2  244 8 5 61 254 41 202 70 4 239 252 159 255 126 0 2  244 9 5 53 254 56 202 71 4 245 252 167 255 130 0 2  244 14 5 46 254 64 202 72 4 250 252 175 255 132 0 2  244 21 5 33 254 72 202 73 4 254 252 183 255 133 0 2  244 27 5 24 254 79 202 74 5 2 252 191 255 133 0 2  244 39 5 17 254 86 202 75 5 6 252 199 255 133 0 2  244 53 5 5 254 98 202 76 5 8 252 208 255 133 0 2  244 62 4 249 254 108 202 77 5 11 252 217 255 132 0 2  244 75 4 228 254 118 202 78 5 14 252 225 255 131 0 2  244 94 4 211 254 129 202 79 5 15 252 235 255 128 0 2  244 113 4 199 254 133 202 80 5 15 252 243 255 126 0 2  244 132 4 184 254 147 202 81 5 14 252 251 255 123 0 2  244 156 4 172 254 163 202 82 5 14 253 2 255 120 0 2  244 180 4 159 254 169 202 83 5 15 253 10 255 117 0 2  244 203 4 141 254 176 202 84 5 14 253 19 255 112 0 2  244 227 4 131 254 184 202 85 5 12 253 27 255 108 0 2  245 0 4 118 254 193 202 86 5 10 253 34 255 104 0 2  245 35 4 105 254 200 202 87 5 7 253 40 255 99 0 2  245 72 4 94 254 203 202 88 5 4 253 46 255 94 0 2  245 109 4 81 254 209 202 89 5 2 253 52 255 89 0 2  245 141 4 70 254 216 202 90 4 255 253 59 255 83 0 2  245 179 4 62 254 223 202 91 4 252 253 66 255 77 0 2  245 210 4 55 254 233 202 92 4 248 253 72 255 71 0 2  245 241 4 44 254 240 202 93 4 243 253 77 255 66 0 2  246 24 4 34 254 244 202 94 4 238 253 83 255 60 0 2  246 66 4 28 254 253 202 95 4 234 253 89 255 54 0 2  246 112 4 23 255 10 202 96 4 229 253 93 255 47 0 2  246 157 4 15 255 21 202 97 4 224 253 96 255 41 0 2  246 199 4 3 255 31 202 98 4 218 253 99 255 35 0 2  246 242 3 251 255 43 202 99 4 214 253 102 255 29 0 2  247 29 3 249 255 48 202 100 4 208 253 105 255 22 0 2  247 70 3 246 255 59 202 101 4 203 253 107 255 16 0 2  247 114 3 240 255 72 202 102 4 198 253 108 255 11 0 2  247 160 3 234 255 82 202 103 4 192 253 110 255 5 0 2  247 201 3 234 255 95 202 104 4 187 253 112 254 255 0 2  247 241 3 236 255 110 202 105 4 181 253 114 254 248 0 2  248 23 3 236 255 123 202 106 4 175 253 115 254 242 0 2  248 58 3 232 255 137 202 107 4 169 253 116 254 235 0 2  248 95 3 236 255 148 202 108 4 164 253 116 254 227 0 2  248 131 3 240 255 169 202 109 4 159 253 115 254 221 0 2  248 162 3 243 255 190 202 110 4 153 253 114 254 216 0 2  248 189 3 245 255 204 202 111 4 148 253 114 254 209 0 2  248 216 3 246 255 227 202 112 4 142 253 113 254 204 0 2  248 241 3 252 255 243 202 113 4 136 253 113 254 197 0 2  249 9 4 6 255 255 202 114 4 131 253 112 254 191 0 2  249 30 4 18 0 13 202 115 4 126 253 111 254 184 0 2  249 51 4 24 0 30 202 116 4 121 253 110 254 177 0 2  249 70 4 29 0 53 202 117 4 117 253 109 254 170 0 2  249 85 4 37 0 75 202 118 4 112 253 107 254 163 0 2  249 104 4 42 0 91 202 119 4 106 253 107 254 157 0 2  249 121 4 44 0 103 202 120 4 101 253 106 254 151 0 2  249 135 4 48 0 125 202 121 4 95 253 104 254 145 0 2  249 152 4 52 0 144 202 122 4 91 253 101 254 139 0 2  249 159 4 50 0 158 202 123 4 86 253 100 254 132 0 2  249 167 4 52 0 178 202 124 4 81 253 100 254 126 0 2  249 179 4 57 0 195 202 125 4 77 253 99 254 121 0 2  249 184 4 59 0 209 202 126 4 73 253 98 254 117 0 2  249 192 4 63 0 220 202 127 4 69 253 97 254 113 0 2  249 195 4 67 0 243 202 128 4 64 253 97 254 109 0 2  249 198 4 76 1 14 202 129 4 60 253 97 254 105 0 2  249 199 4 90 1 33 202 130 4 56 253 96 254 103 0 2  249 189 4 104 1 50 202 131 4 52 253 96 254 101 0 2  249 181 4 114 1 73 202 132 4 47 253 96 254 99 0 2  249 177 4 119 1 96 202 133 4 43 253 98 254 100 0 2  249 173 4 128 1 119 202 134 4 38 253 100 254 98 0 2  249 167 4 145 1 141 202 135 4 34 253 101 254 98 0 2  249 164 4 160 1 159 202 136 4 31 253 102 254 101 0 2  249 160 4 169 1 184 202 137 4 29 253 103 254 104 0 2  249 156 4 177 1 209 202 138 4 25 253 105 254 108 0 2  249 158 4 184 1 227 202 139 4 21 253 107 254 114 0 2  249 161 4 190 1 247 202 140 4 17 253 111 254 121 0 2  249 161 4 197 2 12 202 141 4 13 253 115 254 129 0 2  249 162 4 206 2 30 202 142 4 10 253 118 254 137 0 2  249 168 4 216 2 50 202 143 4 7 253 122 254 147 0 2  249 176 4 225 2 70 202 144 4 3 253 125 254 157 0 2  249 185 4 225 2 78 202 145 3 255 253 130 254 169 0 2  249 198 4 220 2 93 202 146 3 252 253 133 254 183 0 2  249 212 4 220 2 112 202 147 3 249 253 137 254 197 0 2  249 221 4 221 2 125 202 148 3 246 253 142 254 211 0 2  249 241 4 213 2 145 202 149 3 242 253 148 254 227 0 2  250 13 4 201 2 159 202 150 3 238 253 153 254 245 0 2  250 39 4 189 2 167 202 151 3 234 253 156 255 8 0 2  250 68 4 174 2 181 202 152 3 231 253 160 255 27 0 2  250 101 4 153 2 193 202 153 3 227 253 163 255 47 0 2  250 134 4 128 2 204 202 154 3 223 253 167 255 68 0 2  250 175 4 109 2 213 202 155 3 219 253 171 255 90 0 2  250 214 4 85 2 217 202 156 3 214 253 176 255 112 0 2  250 251 4 56 2 224 202 157 3 209 253 180 255 135 0 2  251 38 4 34 2 233 202 158 3 204 253 183 255 158 0 2  251 80 4 9 2 234 202 159 3 198 253 187 255 181 0 2  251 125 3 237 2 236 202 160 3 192 253 190 255 204 0 2  251 173 3 214 2 246 202 161 3 187 253 193 255 229 0 2  251 213 3 192 3 1 202 162 3 181 253 195 255 254 0 2  252 1 3 162 3 6 202 163 3 174 253 197 0 21 0 2  252 51 3 133 3 10 202 164 3 167 253 198 0 44 0 2  252 98 3 108 3 19 202 165 3 161 253 199 0 68 0 2  252 145 3 82 3 23 202 166 3 155 253 199 0 91 0 2  252 188 3 58 3 22 202 167 3 147 253 198 0 113 0 2  252 228 3 34 3 32 202 168 3 138 253 197 0 133 0 2  253 15 3 9 3 39 202 169 3 130 253 197 0 152 0 2  253 63 2 243 3 47 202 170 3 123 253 197 0 171 0 2  253 106 2 225 3 50 202 171 3 114 253 197 0 189 0 2  253 145 2 208 3 47 202 172 3 104 253 196 0 207 0 2  253 183 2 189 3 54 202 173 3 94 253 193 0 225 0 2  253 217 2 173 3 60 202 174 3 85 253 190 0 239 0 2  253 252 2 153 3 68 202 175 3 75 253 187 0 252 0 2  254 33 2 129 3 79 202 176 3 64 253 183 1 8 0 2  254 71 2 107 3 85 202 177 3 54 253 180 1 20 0 2  254 111 2 89 3 92 202 178 3 43 253 177 1 31 0 2  254 148 2 70 3 97 202 179 3 31 253 173 1 40 0 2  254 179 2 48 3 99 202 180 3 20 253 167 1 46 0 2  254 211 2 27 3 110 202 181 3 9 253 161 1 52 0 2  254 246 2 8 3 119 202 182 2 253 253 157 1 58 0 2  255 29 1 241 3 128 202 183 2 240 253 153 1 61 0 2  255 63 1 218 3 131 202 184 2 227 253 147 1 63 0 2  255 95 1 199 3 131 202 185 2 214 253 141 1 63 0 2  255 129 1 181 3 140 202 186 2 200 253 135 1 62 0 2  255 163 1 159 3 142 202 187 2 186 253 128 1 60 0 2  255 191 1 139 3 145 202 188 2 171 253 122 1 58 0 2  255 222 1 125 3 156 202 189 2 157 253 114 1 55 0 2  255 252 1 106 3 161 202 190 2 143 253 107 1 49 0 2  0 26 1 85 3 165 202 191 2 129 253 100 1 43 0 2  0 57 1 65 3 175 202 192 2 113 253 93 1 35 0 2  0 85 1 43 3 172 202 193 2 97 253 86 1 28 0 2  0 115 1 28 3 165 202 194 2 81 253 78 1 20 0 2  0 137 1 13 3 169 202 195 2 65 253 70 1 12 0 2  0 163 0 252 3 170 202 196 2 48 253 62 1 3 0 2  0 188 0 239 3 172 202 197 2 32 253 53 0 249 0 2  0 214 0 228 3 174 202 198 2 15 253 45 0 239 0 2  0 245 0 217 3 178 202 199 1 253 253 37 0 229 0 2  1 11 0 203 3 181 202 200 1 236 253 29 0 218 0 2  1 30 0 192 3 175 202 201 1 220 253 20 0 207 0 2  1 44 0 186 3 170 202 202 1 202 253 10 0 196 0 2  1 60 0 181 3 170 202 203 1 184 253 1 0 186 0 2  1 79 0 177 3 168 202 204 1 165 252 249 0 175 0 2  1 93 0 173 3 168 202 205 1 147 252 241 0 164 0 2  1 97 0 171 3 165 202 206 1 128 252 232 0 153 0 2  1 105 0 174 3 164 202 207 1 109 252 222 0 143 0 2  1 114 0 179 3 166 202 208 1 91 252 213 0 134 0 2  1 118 0 179 3 165 202 209 1 73 252 205 0 124 0 2  1 125 0 183 3 168 202 210 1 54 252 197 0 115 0 2  1 136 0 191 3 170 202 211 1 36 252 188 0 106 0 2  1 145 0 198 3 170 202 212 1 18 252 179 0 97 0 2  1 145 0 210 3 173 202 213 1 1 252 170 0 88 0 2  1 145 0 223 3 177 202 214 0 238 252 163 0 80 0 2  1 143 0 236 3 181 202 215 0 220 252 156 0 75 0 2  1 138 0 254 3 185 202 216 0 201 252 148 0 71 0 2  1 136 1 14 3 188 202 217 0 181 252 141 0 67 0 2  1 129 1 33 3 194 202 218 0 163 252 134 0 63 0 2  1 116 1 57 3 203 202 219 0 145 252 127 0 59 0 2  1 107 1 78 3 211 202 220 0 129 252 119 0 55 0 2  1 99 1 101 3 218 202 221 0 112 252 112 0 54 0 2  1 87 1 128 3 219 202 222 0 95 252 106 0 53 0 2  1 77 1 153 3 218 202 223 0 77 252 100 0 54 0 2  1 59 1 182 3 217 202 224 0 60 252 94 0 56 0 2  1 40 1 212 3 222 202 225 0 44 252 88 0 59 0 2  1 28 1 230 3 228 202 226 0 28 252 83 0 61 0 2  1 13 1 251 3 230 202 227 0 12 252 79 0 65 0 2  0 255 2 17 3 230 202 228 255 252 252 75 0 70 0 2  0 240 2 43 3 227 202 229 255 235 252 72 0 76 0 2  0 223 2 70 3 230 202 230 255 220 252 68 0 81 0 2  0 205 2 95 3 236 202 231 255 205 252 63 0 87 0 2  0 188 2 124 3 243 202 232 255 191 252 61 0 94 0 2  0 169 2 150 3 250 202 233 255 177 252 59 0 102 0 2  0 154 2 178 3 253 202 234 255 163 252 58 0 110 0 2  0 133 2 207 3 254 202 235 255 149 252 55 0 118 0 2  0 105 2 234 3 250 202 236 255 136 252 53 0 125 0 2  0 78 3 4 3 245 202 237 255 122 252 51 0 132 0 2  0 56 3 25 3 251 202 238 255 110 252 51 0 140 0 2  0 37 3 47 3 255 202 239 255 98 252 52 0 149 0 2  0 11 3 82 3 249 202 240 255 87 252 52 0 158 0 2  255 246 3 114 3 242 202 241 255 75 252 53 0 166 0 2  255 231 3 138 3 247 202 242 255 62 252 54 0 173 0 2  255 212 3 168 3 251 202 243 255 49 252 55 0 181 0 2  255 193 3 194 3 243 202 244 255 38 252 56 0 189 0 2  255 173 3 218 3 240 202 245 255 29 252 59 0 197 0 2  255 153 3 246 3 239 202 246 255 18 252 61 0 205 0 2  255 134 4 16 3 235 202 247 255 8 252 63 0 212 0 2  255 111 4 40 3 232 202 248 254 255 252 66 0 220 0 2  255 87 4 63 3 231 202 249 254 246 252 69 0 227 0 2  255 67 4 86 3 229 202 250 254 236 252 72 0 234 0 2  255 48 4 103 3 223 202 251 254 227 252 75 0 239 0 2  255 31 4 121 3 222 202 252 254 218 252 80 0 244 0 2  255 15 4 141 3 223 202 253 254 211 252 84 0 249 0 2  254 252 4 164 3 218 202 254 254 204 252 89 0 255 0 2  254 230 4 183 3 208 202 255 254 196 252 94 1 4 0 2  254 208 4 193 3 200 203 0 254 188 252 99 1 7 0 2  254 187 4 207 3 195 203 1 254 181 252 105 1 8 0 2  254 169 4 226 3 193 203 2 254 173 252 110 1 10 0 2  254 153 4 245 3 186 203 3 254 165 252 116 1 13 0 2  254 133 5 3 3 177 203 4 254 159 252 122 1 14 0 2  254 112 5 17 3 174 203 5 254 153 252 127 1 14 0 2  254 90 5 34 3 169 203 6 254 148 252 133 1 13 0 2  254 62 5 53 3 163 203 7 254 143 252 138 1 13 0 2  254 38 5 67 3 151 203 8 254 138 252 146 1 12 0 2  254 21 5 83 3 150 203 9 254 132 252 153 1 9 0 2  254 4 5 104 3 145 203 10 254 127 252 159 1 5 0 2  253 244 5 122 3 131 203 11 254 121 252 167 1 1 0 2  253 228 5 138 3 124 203 12 254 116 252 174 0 254 0 2  253 217 5 152 3 115 203 13 254 112 252 181 0 249 0 2  253 202 5 166 3 102 203 14 254 107 252 189 0 242 0 2  253 186 5 177 3 90 203 15 254 104 252 197 0 236 0 2  253 174 5 189 3 83 203 16 254 100 252 205 0 230 0 2  253 163 5 203 3 69 203 17 254 97 252 213 0 223 0 2  253 148 5 214 3 56 203 18 254 94 252 221 0 215 0 2  253 132 5 225 3 47 203 19 254 91 252 230 0 207 0 2  253 121 5 239 3 31 203 20 254 89 252 239 0 199 0 2  253 107 5 250 3 21 203 21 254 87 252 247 0 190 0 2  253 89 6 3 3 13 203 22 254 84 252 255 0 181 0 2  253 73 6 16 3 4 203 23 254 82 253 7 0 172 0 2  253 56 6 25 2 255 203 24 254 79 253 16 0 163 0 2  253 39 6 34 2 250 203 25 254 77 253 25 0 153 0 2  253 23 6 45 2 236 203 26 254 77 253 34 0 144 0 2  253 8 6 57 2 226 203 27 254 78 253 42 0 134 0 2  252 253 6 67 2 219 203 28 254 76 253 51 0 125 0 2  252 245 6 73 2 212 203 29 254 74 253 61 0 117 0 2  252 231 6 84 2 202 203 30 254 74 253 70 0 108 0 2  252 219 6 92 2 190 203 31 254 75 253 79 0 99 0 2  